#wavelength   flux
1067.9858625       78.2468984831
1068.9858625       78.3322275712
1069.9858625       78.4175566594
1070.9858625       78.5028857476
1071.9858625       78.5882148358
1072.9858625       78.673543924
1073.9858625       78.7588730122
1074.9858625       78.8442021003
1075.9858625       78.9295311885
1076.9858625       79.0148602767
1077.9858625       79.1001893649
1078.9858625       78.3249128184
1079.9858625       76.1046879994
1080.9858625       73.8844631805
1081.9858625       71.6642383615
1082.9858625       69.4440135425
1083.9858625       67.2237887236
1084.9858625       65.0035639046
1085.9858625       62.7833390857
1086.9858625       60.5631142667
1087.9858625       58.3428894477
1088.9858625       56.1226646288
1089.9858625       57.1213285776
1090.9858625       59.212789202
1091.9858625       61.3042498265
1092.9858625       63.395710451
1093.9858625       65.4871710754
1094.9858625       67.5786316999
1095.9858625       69.6700923243
1096.9858625       71.7615529488
1097.9858625       73.8530135732
1098.9858625       75.9444741977
1099.9858625       77.9927345095
1100.9858625       79.723666758
1101.9858625       81.4545990065
1102.9858625       83.185531255
1103.9858625       84.9164635036
1104.9858625       86.6473957521
1105.9858625       88.3783280006
1106.9858625       90.1092602491
1107.9858625       91.8401924977
1108.9858625       93.5711247462
1109.9858625       95.3020569947
1110.9858625       96.2367167161
1111.9858625       96.3528192604
1112.9858625       96.4689218046
1113.9858625       96.5850243489
1114.9858625       96.7011268932
1115.9858625       96.8172294375
1116.9858625       96.9333319818
1117.9858625       97.0494345261
1118.9858625       97.1655370704
1119.9858625       97.2816396147
1120.9858625       97.397742159
1121.9858625       96.9549580722
1122.9858625       96.4259743306
1123.9858625       95.8969905889
1124.9858625       95.3680068472
1125.9858625       94.8390231055
1126.9858625       94.3100393639
1127.9858625       93.7810556222
1128.9858625       93.2520718805
1129.9858625       92.7230881388
1130.9858625       92.1941043972
1131.9858625       91.9435865117
1132.9858625       92.5765717089
1133.9858625       93.2095569061
1134.9858625       93.8425421033
1135.9858625       94.4755273005
1136.9858625       95.1085124977
1137.9858625       95.7414976949
1138.9858625       96.3744828921
1139.9858625       97.0074680893
1140.9858625       97.6404532865
1141.9858625       98.2734384837
1142.9858625       98.1487894751
1143.9858625       97.5456785664
1144.9858625       96.9425676576
1145.9858625       96.3394567488
1146.9858625       95.7363458401
1147.9858625       95.1332349313
1148.9858625       94.5301240226
1149.9858625       93.9270131138
1150.9858625       93.323902205
1151.9858625       92.7207912963
1152.9858625       92.1176803875
1153.9858625       93.1475642205
1154.9858625       94.20029872
1155.9858625       95.2530332196
1156.9858625       96.3057677192
1157.9858625       97.3585022187
1158.9858625       98.4112367183
1159.9858625       99.4639712179
1160.9858625       100.516705717
1161.9858625       101.569440217
1162.9858625       102.622174717
1163.9858625       103.251093852
1164.9858625       103.124844099
1165.9858625       102.998594347
1166.9858625       102.872344594
1167.9858625       102.746094842
1168.9858625       102.619845089
1169.9858625       102.493595336
1170.9858625       102.367345584
1171.9858625       102.241095831
1172.9858625       102.114846078
1173.9858625       101.988596326
1174.9858625       101.995548485
1175.9858625       102.051082305
1176.9858625       102.106616124
1177.9858625       102.162149943
1178.9858625       102.217683762
1179.9858625       102.273217581
1180.9858625       102.3287514
1181.9858625       102.384285219
1182.9858625       102.439819038
1183.9858625       102.495352857
1184.9858625       102.497821114
1185.9858625       102.052854467
1186.9858625       101.607887819
1187.9858625       101.162921171
1188.9858625       100.717954524
1189.9858625       100.272987876
1190.9858625       99.8280212282
1191.9858625       99.3830545805
1192.9858625       98.9380879328
1193.9858625       98.4931212851
1194.9858625       98.0481546374
1195.9858625       98.2232784406
1196.9858625       99.0720536057
1197.9858625       99.9208287709
1198.9858625       100.769603936
1199.9858625       101.618379101
1200.9858625       102.467154266
1201.9858625       103.315929431
1202.9858625       104.164704597
1203.9858625       105.013479762
1204.9858625       105.862254927
1205.9858625       106.711030092
1206.9858625       106.608162067
1207.9858625       106.340738435
1208.9858625       106.073314802
1209.9858625       105.80589117
1210.9858625       105.538467537
1211.9858625       105.271043905
1212.9858625       105.003620272
1213.9858625       104.73619664
1214.9858625       104.468773007
1215.9858625       104.201349375
1216.9858625       104.035505906
1217.9858625       104.217850541
1218.9858625       104.400195176
1219.9858625       104.582539811
1220.9858625       104.764884446
1221.9858625       104.947229081
1222.9858625       105.129573716
1223.9858625       105.311918351
1224.9858625       105.494262986
1225.9858625       105.676607621
1226.9858625       105.858952256
1227.9858625       106.003314294
1228.9858625       106.122262147
1229.9858625       106.241209999
1230.9858625       106.360157852
1231.9858625       106.479105705
1232.9858625       106.598053558
1233.9858625       106.717001411
1234.9858625       106.835949263
1235.9858625       106.954897116
1236.9858625       107.073844969
1237.9858625       107.192792822
1238.9858625       105.632962205
1239.9858625       104.025482179
1240.9858625       102.418002154
1241.9858625       100.810522128
1242.9858625       99.2030421021
1243.9858625       97.5955620763
1244.9858625       95.9880820505
1245.9858625       94.3806020247
1246.9858625       92.7731219989
1247.9858625       91.1656419732
1248.9858625       90.6184474695
1249.9858625       92.0782575922
1250.9858625       93.538067715
1251.9858625       94.9978778378
1252.9858625       96.4576879605
1253.9858625       97.9174980833
1254.9858625       99.3773082061
1255.9858625       100.837118329
1256.9858625       102.296928452
1257.9858625       103.756738574
1258.9858625       105.216548697
1259.9858625       105.088614472
1260.9858625       104.340003497
1261.9858625       103.591392522
1262.9858625       102.842781547
1263.9858625       102.094170572
1264.9858625       101.345559597
1265.9858625       100.596948622
1266.9858625       99.8483376475
1267.9858625       99.0997266726
1268.9858625       98.3511156977
1269.9858625       97.6011565277
1270.9858625       96.837927011
1271.9858625       96.0746974943
1272.9858625       95.3114679776
1273.9858625       94.5482384609
1274.9858625       93.7850089442
1275.9858625       93.0217794275
1276.9858625       92.2585499108
1277.9858625       91.4953203941
1278.9858625       90.7320908773
1279.9858625       89.9688613606
1280.9858625       88.5078192521
1281.9858625       86.2455293877
1282.9858625       83.9832395234
1283.9858625       81.720949659
1284.9858625       79.4586597947
1285.9858625       77.1963699303
1286.9858625       74.934080066
1287.9858625       72.6717902016
1288.9858625       70.4095003372
1289.9858625       68.1472104729
1290.9858625       65.8849206085
1291.9858625       67.7743351156
1292.9858625       70.4617688021
1293.9858625       73.1492024887
1294.9858625       75.8366361753
1295.9858625       78.5240698618
1296.9858625       81.2115035484
1297.9858625       83.8989372349
1298.9858625       86.5863709215
1299.9858625       89.2738046081
1300.9858625       91.9612382946
1301.9858625       94.335466014
1302.9858625       95.5458614211
1303.9858625       96.7562568283
1304.9858625       97.9666522354
1305.9858625       99.1770476425
1306.9858625       100.38744305
1307.9858625       101.597838457
1308.9858625       102.808233864
1309.9858625       104.018629271
1310.9858625       105.229024678
1311.9858625       106.439420085
1312.9858625       107.105015571
1313.9858625       107.384646154
1314.9858625       107.664276736
1315.9858625       107.943907318
1316.9858625       108.2235379
1317.9858625       108.503168483
1318.9858625       108.782799065
1319.9858625       109.062429647
1320.9858625       109.342060229
1321.9858625       109.621690812
1322.9858625       109.901321394
1323.9858625       109.878468899
1324.9858625       109.84255277
1325.9858625       109.806636642
1326.9858625       109.770720513
1327.9858625       109.734804384
1328.9858625       109.698888255
1329.9858625       109.662972127
1330.9858625       109.627055998
1331.9858625       109.591139869
1332.9858625       109.555223741
1333.9858625       109.443153911
1334.9858625       109.177772768
1335.9858625       108.912391626
1336.9858625       108.647010483
1337.9858625       108.381629341
1338.9858625       108.116248198
1339.9858625       107.850867056
1340.9858625       107.585485913
1341.9858625       107.320104771
1342.9858625       107.054723628
1343.9858625       106.789342486
1344.9858625       107.16478314
1345.9858625       107.808175728
1346.9858625       108.451568316
1347.9858625       109.094960905
1348.9858625       109.738353493
1349.9858625       110.381746081
1350.9858625       111.02513867
1351.9858625       111.668531258
1352.9858625       112.311923846
1353.9858625       112.955316435
1354.9858625       113.557792084
1355.9858625       113.679451312
1356.9858625       113.801110539
1357.9858625       113.922769767
1358.9858625       114.044428994
1359.9858625       114.166088222
1360.9858625       114.287747449
1361.9858625       114.409406677
1362.9858625       114.531065904
1363.9858625       114.652725132
1364.9858625       114.774384359
1365.9858625       114.49922815
1366.9858625       113.74239405
1367.9858625       112.985559949
1368.9858625       112.228725848
1369.9858625       111.471891748
1370.9858625       110.715057647
1371.9858625       109.958223546
1372.9858625       109.201389445
1373.9858625       108.444555345
1374.9858625       107.687721244
1375.9858625       106.930887143
1376.9858625       106.816311546
1377.9858625       106.837996192
1378.9858625       106.859680838
1379.9858625       106.881365484
1380.9858625       106.90305013
1381.9858625       106.924734776
1382.9858625       106.946419422
1383.9858625       106.968104068
1384.9858625       106.989788714
1385.9858625       107.01147336
1386.9858625       107.160024345
1387.9858625       107.821640082
1388.9858625       108.483255818
1389.9858625       109.144871555
1390.9858625       109.806487291
1391.9858625       110.468103028
1392.9858625       111.129718764
1393.9858625       111.791334501
1394.9858625       112.452950237
1395.9858625       113.114565974
1396.9858625       113.77618171
1397.9858625       113.916610577
1398.9858625       113.666303179
1399.9858625       113.41599578
1400.9858625       113.165688382
1401.9858625       112.915380984
1402.9858625       112.665073585
1403.9858625       112.414766187
1404.9858625       112.164458789
1405.9858625       111.91415139
1406.9858625       111.663843992
1407.9858625       111.413536593
1408.9858625       111.037902187
1409.9858625       110.654945543
1410.9858625       110.271988898
1411.9858625       109.889032254
1412.9858625       109.506075609
1413.9858625       109.123118964
1414.9858625       108.74016232
1415.9858625       108.357205675
1416.9858625       107.974249031
1417.9858625       107.591292386
1418.9858625       107.473673229
1419.9858625       107.924914454
1420.9858625       108.37615568
1421.9858625       108.827396905
1422.9858625       109.27863813
1423.9858625       109.729879356
1424.9858625       110.181120581
1425.9858625       110.632361806
1426.9858625       111.083603032
1427.9858625       111.534844257
1428.9858625       111.986085482
1429.9858625       112.032884699
1430.9858625       111.899122658
1431.9858625       111.765360616
1432.9858625       111.631598575
1433.9858625       111.497836534
1434.9858625       111.364074492
1435.9858625       111.230312451
1436.9858625       111.096550409
1437.9858625       110.962788368
1438.9858625       110.829026327
1439.9858625       110.678672545
1440.9858625       110.288171775
1441.9858625       109.897671005
1442.9858625       109.507170235
1443.9858625       109.116669465
1444.9858625       108.726168694
1445.9858625       108.335667924
1446.9858625       107.945167154
1447.9858625       107.554666384
1448.9858625       107.164165614
1449.9858625       106.773664844
1450.9858625       106.560211348
1451.9858625       106.574020406
1452.9858625       106.587829464
1453.9858625       106.601638522
1454.9858625       106.61544758
1455.9858625       106.629256638
1456.9858625       106.643065696
1457.9858625       106.656874754
1458.9858625       106.670683812
1459.9858625       106.68449287
1460.9858625       106.698301928
1461.9858625       106.697473534
1462.9858625       106.693237839
1463.9858625       106.689002144
1464.9858625       106.684766449
1465.9858625       106.680530755
1466.9858625       106.67629506
1467.9858625       106.672059365
1468.9858625       106.66782367
1469.9858625       106.663587976
1470.9858625       106.659352281
1471.9858625       106.460032744
1472.9858625       105.398145424
1473.9858625       104.336258104
1474.9858625       103.274370783
1475.9858625       102.212483463
1476.9858625       101.150596143
1477.9858625       100.088708823
1478.9858625       99.0268215024
1479.9858625       97.9649341822
1480.9858625       96.903046862
1481.9858625       95.8411595418
1482.9858625       95.3212942174
1483.9858625       95.2312514368
1484.9858625       95.1412086562
1485.9858625       95.0511658755
1486.9858625       94.9611230949
1487.9858625       94.8710803143
1488.9858625       94.7810375337
1489.9858625       94.690994753
1490.9858625       94.6009519724
1491.9858625       94.5109091918
1492.9858625       94.4208664112
1493.9858625       95.1161313234
1494.9858625       95.8695984169
1495.9858625       96.6230655104
1496.9858625       97.3765326039
1497.9858625       98.1299996974
1498.9858625       98.883466791
1499.9858625       99.6369338845
1500.9858625       100.390400978
1501.9858625       101.143868072
1502.9858625       101.897335165
1503.9858625       102.367982803
1504.9858625       102.191963559
1505.9858625       102.015944315
1506.9858625       101.839925071
1507.9858625       101.663905827
1508.9858625       101.487886583
1509.9858625       101.311867338
1510.9858625       101.135848094
1511.9858625       100.95982885
1512.9858625       100.783809606
1513.9858625       100.607790362
1514.9858625       100.592030386
1515.9858625       100.652538731
1516.9858625       100.713047076
1517.9858625       100.773555422
1518.9858625       100.834063767
1519.9858625       100.894572112
1520.9858625       100.955080457
1521.9858625       101.015588802
1522.9858625       101.076097148
1523.9858625       101.136605493
1524.9858625       101.20000552
1525.9858625       101.317408732
1526.9858625       101.434811944
1527.9858625       101.552215155
1528.9858625       101.669618367
1529.9858625       101.787021579
1530.9858625       101.904424791
1531.9858625       102.021828003
1532.9858625       102.025497428
1533.9858625       101.957096793
1534.9858625       101.888696157
1535.9858625       101.820295521
1536.9858625       101.751894885
1537.9858625       101.638346133
1538.9858625       101.418824623
1539.9858625       101.199303114
1540.9858625       100.979781605
1541.9858625       100.760260095
1542.9858625       100.540738586
1543.9858625       100.321217076
1544.9858625       100.101695567
1545.9858625       99.8821740573
1546.9858625       99.6188594609
1547.9858625       99.3444163814
1548.9858625       99.069973302
1549.9858625       98.7955302225
1550.9858625       98.521087143
1551.9858625       98.2466440635
1552.9858625       97.972200984
1553.9858625       97.6977579045
1554.9858625       97.423314825
1555.9858625       97.1488717456
1556.9858625       96.9090562707
1557.9858625       96.8375291283
1558.9858625       96.7660019858
1559.9858625       96.6944748434
1560.9858625       96.6229477009
1561.9858625       96.5514205584
1562.9858625       96.479893416
1563.9858625       96.4083662735
1564.9858625       96.3368391311
1565.9858625       96.2653119886
1566.9858625       96.1937848462
1567.9858625       96.1436801033
1568.9858625       96.1115378017
1569.9858625       96.0793955001
1570.9858625       96.0472531985
1571.9858625       96.0151108969
1572.9858625       95.9829685953
1573.9858625       95.9508262937
1574.9858625       95.9186839921
1575.9858625       95.8865416905
1576.9858625       95.8543993889
1577.9858625       95.8222570873
1578.9858625       95.7367159565
1579.9858625       95.6463542598
1580.9858625       95.5559925631
1581.9858625       95.4656308664
1582.9858625       95.3752691697
1583.9858625       95.2849074731
1584.9858625       95.1945457764
1585.9858625       95.1041840797
1586.9858625       95.013822383
1587.9858625       94.9234606863
1588.9858625       94.7883689377
1589.9858625       94.5440179066
1590.9858625       94.2996668756
1591.9858625       94.0553158446
1592.9858625       93.8109648135
1593.9858625       93.5666137825
1594.9858625       93.3222627514
1595.9858625       93.0779117204
1596.9858625       92.8335606893
1597.9858625       92.5892096583
1598.9858625       92.3448586272
1599.9858625       91.9160614748
1600.9858625       91.393825515
1601.9858625       90.8715895552
1602.9858625       90.3493535955
1603.9858625       89.8271176357
1604.9858625       89.3048816759
1605.9858625       88.7826457162
1606.9858625       88.4307659546
1607.9858625       88.6655256651
1608.9858625       88.9002853757
1609.9858625       89.1350450863
1610.9858625       89.3698047969
1611.9858625       89.6045645075
1612.9858625       89.4909284018
1613.9858625       89.3435410693
1614.9858625       89.1961537367
1615.9858625       89.0487664041
1616.9858625       88.9013790716
1617.9858625       88.753991739
1618.9858625       88.6066044065
1619.9858625       88.4592170739
1620.9858625       88.1320083396
1621.9858625       87.5463529064
1622.9858625       86.9606974731
1623.9858625       86.3750420399
1624.9858625       85.7893866067
1625.9858625       85.2037311734
1626.9858625       84.6180757402
1627.9858625       84.0324203069
1628.9858625       83.4467648737
1629.9858625       82.8611094405
1630.9858625       82.2754540072
1631.9858625       81.9959807005
1632.9858625       81.8010755164
1633.9858625       81.6061703323
1634.9858625       81.4112651482
1635.9858625       81.2163599642
1636.9858625       81.0214547801
1637.9858625       80.826549596
1638.9858625       80.631644412
1639.9858625       80.4367392279
1640.9858625       80.2418340438
1641.9858625       80.0525894237
1642.9858625       79.8937732667
1643.9858625       79.7349571098
1644.9858625       79.5761409529
1645.9858625       79.417324796
1646.9858625       79.2585086391
1647.9858625       79.0996924822
1648.9858625       78.9408763252
1649.9858625       78.7820601683
1650.9858625       78.6232440114
1651.9858625       78.4644278545
1652.9858625       78.5044002037
1653.9858625       78.7205682601
1654.9858625       78.9367363164
1655.9858625       79.1529043728
1656.9858625       79.3690724292
1657.9858625       79.5852404856
1658.9858625       79.801408542
1659.9858625       80.0175765984
1660.9858625       80.2337446548
1661.9858625       80.4499127112
1662.9858625       80.6660807676
1663.9858625       80.839624586
1664.9858625       81.0086106212
1665.9858625       81.1775966564
1666.9858625       81.3465826915
1667.9858625       81.5155687267
1668.9858625       81.6845547619
1669.9858625       81.8535407971
1670.9858625       82.0225268323
1671.9858625       82.1915128675
1672.9858625       82.3604989026
1673.9858625       82.4909594429
